Temperature [K],Voltage [V],Resistance [𝛀],Current Source [A],Electric Field [V/cm],Restivity [𝛀 cm],Current Density [A/cm2]
186.6010377434603,6.24572765,62457.2765,0.0001,408.2174934640523,105646.68730849674,0.0038639876352395673
186.58541743192202,7.22515327,61040.08797068965,0.00011836734693877552,472.23223986928105,103249.50827983322,0.004573699649875407
186.56956198078348,8.15597755,59648.19402238805,0.00013673469387755102,533.0704281045752,100895.11511760805,0.005283411664511245
186.55396709219247,9.03297196,58238.898163157886,0.00015510204081632654,590.3903241830066,98511.28656617818,0.005993123679147084
186.53743351668825,9.84215678,56737.13908470588,0.00017346938775510205,643.2782209150326,95971.0561772672,0.006702835693782923
186.52183823014443,10.5807925,55155.1949468085,0.00019183673469387756,691.5550653594771,93295.1924982617,0.007412547708418762
186.50566957665916,11.2085469,53322.21340776698,0.00021020408163265308,732.5847647058824,90194.69823483725,0.0081222597230546
186.48877001866504,11.9184839,52143.3670625,0.00022857142857142857,778.9858758169935,88200.6757893791,0.00883197173769044
186.46704537056888,12.2548888,49627.23563636363,0.0002469387755102041,800.9731241830066,83944.6312594177,0.00954168375232628
186.45442240410608,12.9337448,48750.26886153846,0.0002653061224489796,845.3427973856209,82461.23909389642,0.010251395766962117
186.43866988144143,13.4406262,47380.62473381295,0.00028367346938775514,878.4723006535949,80144.48157588752,0.010961107781597958
186.42578627987808,13.8917008,45992.793189189186,0.0003020408163265306,907.9543006535948,77796.95998275923,0.011670819796233795
186.4111544551254,14.3013819,44634.88618471338,0.0003204081632653061,934.730843137255,75500.0558470838,0.012380531810869634
186.3978010550801,14.6594066,43271.74237349397,0.00033877551020408165,958.1311503267974,73194.29363568785,0.013090243825505473
186.3836126120099,14.9489489,41857.056919999995,0.00035714285714285714,977.0554836601307,70801.34856794772,0.013799955840141312
186.36900655378517,15.1994496,40476.79513043478,0.0003755102040816327,993.4280784313726,68466.6312402387,0.014509667854777152
186.35651344635139,15.4788238,39298.568196891196,0.00039387755102040817,1011.6878300653595,66473.65653173492,0.01521937986941299
186.34195914868997,15.6841033,38045.59711386139,0.00041224489795918366,1025.1047908496732,64354.25185011326,0.015929091884048827
186.3281354739483,15.8837229,36886.37071563981,0.0004306122448979592,1038.1518235294118,62393.416609199885,0.01663880389868467
186.31454620370752,16.0315479,35706.629413636365,0.0004489795918367347,1047.8135882352942,60397.88034149734,0.017348515913320504
186.29991352882743,16.1801634,34621.31033187773,0.00046734693877551023,1057.5270196078434,58562.05956790822,0.018058227927956347
186.28689766656058,16.3186063,33597.13061764705,0.0004857142857142857,1066.5755751633988,56829.65623429451,0.018767939942592182
186.27302087619472,16.4352933,32604.42800404858,0.0005040816326530613,1074.2021764705885,55150.4965192665,0.019477651957228025
186.26005725219568,16.5298568,31639.179031249998,0.0005224489795918368,1080.382797385621,53517.77472736928,0.020187363971863864
186.24631058069045,16.6201109,30731.525815094337,0.0005408163265306123,1086.2817581699346,51982.476346054995,0.020897075986499702
186.23159878121558,16.7036038,29871.408255474453,0.0005591836734693878,1091.7388104575164,50527.584683116256,0.02160678800113554
186.2179301380618,16.7604513,29019.86267491166,0.0005775510204081633,1095.4543333333334,49087.19255076561,0.022316500015771377
186.20319218836184,16.8070871,28203.673558219176,0.0005959183673469389,1098.5024248366014,47706.60599259558,0.02302621203040722
186.19056658860862,16.8595805,27445.82872093023,0.0006142857142857143,1101.933366013072,46424.708973704204,0.023735924045043058
186.1760629021974,16.8948081,26704.696674193543,0.0006326530612244898,1104.2358235294116,45171.08169464894,0.024445636059678897
186.16189779608726,16.9217872,25992.713880877738,0.0006510204081632654,1105.9991633986929,43966.76047301411,0.02515534807431474
186.1491418002811,16.9574553,25332.78383231707,0.0006693877551020409,1108.3304117647058,42850.48663923959,0.025865060088950575
186.13466346286597,16.9753386,24682.243068249256,0.0006877551020408164,1109.499254901961,41750.094810868686,0.026574772103586414
186.12214178468696,16.9806948,24047.80477456647,0.0007061224489795919,1109.8493333333333,40676.94036377649,0.027284484118222253
186.1081327647805,16.9857956,23445.18265915493,0.0007244897959183674,1110.1827189542485,39657.603086204545,0.02799419613285809
186.0951932791737,16.9973706,22881.075807692305,0.000742857142857143,1110.9392549019608,38703.414503469074,0.028703908147493934
186.08134065318558,16.9897092,22318.920932975867,0.0007612244897959185,1110.4385098039215,37752.52769577879,0.02941362016212977
186.06709658240302,16.9905388,21794.146628272247,0.000779591836734694,1110.4927320261438,36864.87024442391,0.03012333217676561
186.0536870341023,16.9492755,21240.78003836317,0.0007979591836734694,1107.7957843137256,35928.848849205155,0.030833044191401447
186.03975560810733,16.9539317,20768.566332499995,0.000816326530612245,1108.1001111111111,35130.09782255555,0.03154275620603729
186.0262936850633,16.9326933,20286.11177750611,0.0008346938775510205,1106.7119803921569,34314.02436613452,0.032252468220673125
186.01322293026476,16.9274155,19843.14257177033,0.000853061224489796,1106.3670261437908,33564.740507020666,0.03296218023530897
185.9987955710835,16.9015462,19395.216950819668,0.0008714285714285715,1104.6762222222221,32807.0728553734,0.0336718922499448
185.98611585302032,16.8743219,18964.26085091743,0.000889795918367347,1102.8968562091504,32078.109204035503,0.03438160426458064
185.97220995116209,16.8414748,18544.545285393255,0.0009081632653061226,1100.7499869281046,31368.158953331862,0.03509131627921648
185.9589298461741,16.8161111,18149.547222466957,0.0009265306122448981,1099.09222875817,30700.018439048687,0.03580102829385232
185.94578004662094,16.7901086,17769.229403887686,0.0009448979591836736,1097.3927189542485,30056.709606053166,0.03651074030848816
185.9315607239707,16.7568231,17395.854489406778,0.000963265306122449,1095.2171960784312,29425.14471802924,0.037220452323123994
185.91885407289698,16.711049,17023.72975051975,0.0009816326530612245,1092.2254248366014,28795.694506107917,0.037930164337759836
185.90552175858267,16.6799897,16679.9897,0.001,1090.1954052287583,28214.257087320264,0.03863987635239567
180.0834959430548,3.43311854,34331.1854,0.0001,224.38683267973857,58071.31229751634,0.0038639876352395673
180.08252614050235,6.2599261,52885.58256896552,0.00011836734693877552,409.1454967320262,89456.13574410637,0.004573699649875407
180.0822905038827,8.80284808,64379.038197014925,0.00013673469387755102,575.3495477124184,108897.35349926449,0.005283411664511245
180.081949797882,10.952798,70616.72394736842,0.00015510204081632654,715.8691503267974,119448.41933058134,0.005993123679147084
180.082369195967,12.6450976,72895.26851764705,0.00017346938775510205,826.4769673202615,123302.58491743174,0.006702835693782923
180.08197617512363,14.039758,73185.97255319149,0.00019183673469387756,917.6312418300655,123794.31174356835,0.007412547708418762
180.08289322359332,15.01625,71436.52912621359,0.00021020408163265308,981.4542483660131,120835.12246969985,0.0081222597230546
180.0831029225152,16.0330227,70144.4743125,0.00022857142857142857,1047.909980392157,118649.60752990197,0.00883197173769044
180.08352188064828,16.7687678,67906.58034710743,0.0002469387755102041,1095.9978954248365,114864.20257406145,0.00954168375232628
180.08491064027217,17.4066517,65609.68717692308,0.0002653061224489796,1137.6896535947715,110979.00027050782,0.010251395766962117
180.08551335889953,17.939391,63239.57978417265,0.00028367346938775514,1172.5092156862745,106969.95587022146,0.010961107781597958
180.08677111009754,18.3543178,60767.6737972973,0.0003020408163265306,1199.628614379085,102788.71881529766,0.011670819796233795
180.0879506080503,18.7198797,58425.102248407646,0.0003204081632653061,1223.5215490196078,98826.25138488822,0.012380531810869634
180.08965369062625,19.0278391,56166.5130060241,0.00033877551020408165,1243.649614379085,95005.84030038587,0.013090243825505473
180.09109475894385,19.2842878,53996.005840000005,0.00035714285714285714,1260.4109673202615,91334.42033589543,0.013799955840141312
180.09256220288674,19.4362271,51759.51782065217,0.0003755102040816327,1270.3416405228759,87551.39354238419,0.014509667854777152
180.09452729177235,19.6309614,49840.26469430052,0.00039387755102040817,1283.0693725490196,84304.97060709134,0.01521937986941299
180.0962308062797,19.8094665,48052.66626237624,0.00041224489795918366,1294.7363725490195,81281.24201766647,0.015929091884048827
180.09906061423547,19.9063037,46227.90906635071,0.0004306122448979592,1301.0656013071896,78194.65925733048,0.01663880389868467
180.10134045862407,20.0094079,44566.408504545456,0.0004489795918367347,1307.8044379084968,75384.2256272965,0.017348515913320504
180.1040915657499,20.04455,42890.08515283843,0.00046734693877551023,1310.1013071895427,72548.71919970318,0.018058227927956347
180.1067116629452,20.1098016,41402.53270588235,0.0004857142857142857,1314.366117647059,70032.51937439447,0.018767939942592182
180.10938450892027,20.1560933,39985.77213360323,0.0005040816326530613,1317.3917189542483,67636.06423644783,0.019477651957228025
180.11237167226247,20.211133,38685.37175781249,0.0005224489795918368,1320.9890849673204,65436.432751123364,0.020187363971863864
180.1155685237294,20.2110476,37371.37103396226,0.0005408163265306123,1320.983503267974,63213.79623261067,0.020897075986499702
180.11727157402558,20.2045602,36132.24269343066,0.0005591836734693878,1320.5594901960785,61117.806595162445,0.02160678800113554
180.12183076262986,20.1449808,34880.00209187279,0.0005775510204081633,1316.6654117647058,58999.63752533777,0.022316500015771377
180.12437257771498,20.1797974,33863.35865068493,0.0005959183673469389,1318.941006535948,57279.98182220432,0.02302621203040722
180.12754302642526,20.1716141,32837.51132558139,0.0006142857142857143,1318.4061503267974,55544.75771934944,0.023735924045043058
180.13225956165775,20.1161593,31796.50986129032,0.0006326530612244898,1314.7816535947713,53783.900340535525,0.024445636059678897
180.1360590671852,20.0996951,30874.139808777425,0.0006510204081632654,1313.7055620915035,52223.70838242875,0.02515534807431474
180.1394128050613,20.0629864,29972.144317073165,0.0006693877551020409,1311.306300653595,50697.98006051331,0.025865060088950575
180.14329098071414,20.0062253,29089.170317507414,0.0006877551020408164,1307.5964248366015,49204.4266547119,0.026574772103586414
180.14753533363435,19.9427473,28242.619008670517,0.0007061224489795919,1303.4475359477126,47772.48234930674,0.027284484118222253
180.1514658000137,19.9005745,27468.398605633804,0.0007244897959183674,1300.6911437908498,46462.886007438094,0.02799419613285809
180.1551865672645,19.8452163,26714.714249999997,0.000742857142857143,1297.0729607843139,45188.02645686274,0.028703908147493934
180.1600340128802,19.7689309,25969.90922520107,0.0007612244897959185,1292.0869869281046,43928.18632341201,0.02941362016212977
180.16420006890786,19.7336499,25312.796992146596,0.000779591836734694,1289.7810392156864,42816.678833774764,0.03012333217676561
180.16854942394815,19.6574327,24634.634329923272,0.0007979591836734694,1284.799522875817,41669.564474406165,0.030833044191401447
180.17378982121383,19.5702142,23973.512394999994,0.000816326530612245,1279.0989673202614,40551.27456095424,0.03154275620603729
180.17785121501782,19.5405931,23410.49051100244,0.0008346938775510205,1277.1629477124184,39598.921204231585,0.032252468220673125
180.18272496053078,19.4732106,22827.447832535883,0.000853061224489796,1272.7588627450982,38612.70260823717,0.03296218023530897
180.18736263050653,19.3781151,22237.18126229508,0.0008714285714285715,1266.5434705882353,37614.26477569913,0.0336718922499448
180.19228821545477,19.3261761,21719.785066513763,0.000889795918367347,1263.1487647058825,36739.08741969779,0.03438160426458064
180.19687354419662,19.2650145,21213.16203370786,0.0009081632653061226,1259.151274509804,35882.132904075785,0.03509131627921648
180.2015898546838,19.1750921,20695.583984581495,0.0009265306122448981,1253.2739934640524,35006.647942547,0.03580102829385232
180.20651583101284,19.1010489,20214.932961123108,0.0009448979591836736,1248.434568627451,34193.62516561216,0.03651074030848816
180.2115723463735,19.028021,19753.665868644064,0.000963265306122449,1243.6615032679738,33413.39037127506,0.037220452323123994
180.21731063259196,18.9669565,19321.847577962577,0.0009816326530612245,1239.670359477124,32682.968321416432,0.037930164337759836
180.22278646801402,18.8648701,18864.8701,0.001,1232.9980457516342,31909.989424052295,0.03863987635239567
175.01368632396708,4.26556371,42655.6371,0.0001,278.7950137254902,72152.14955215687,0.0038639876352395673
175.0011927398296,8.65048232,73081.66097931034,0.00011836734693877552,565.3910013071895,123617.86837546088,0.004573699649875407
174.98533299573762,12.7986427,93602.0137761194,0.00013673469387755102,836.5125947712419,158328.1121912399,0.005283411664511245
174.97623211966615,15.3945854,99254.5637631579,0.00015510204081632654,1006.1820522875818,167889.41896670105,0.005993123679147084
174.9657376127614,17.4467508,100575.38696470587,0.00017346938775510205,1140.3105098039216,170123.59572853518,0.006702835693782923
174.95563752744474,19.0398921,99250.50137234041,0.00019183673469387756,1244.4373921568629,167882.54741935752,0.007412547708418762
174.94522184031192,20.4475977,97274.97934951456,0.00021020408163265308,1336.4442941176471,164540.94546179328,0.0081222597230546
174.9354631510497,21.2598135,93011.6840625,0.00022857142857142857,1389.5302941176471,157329.5675514706,0.00883197173769044
174.9250472977179,21.9726643,88980.2108016529,0.0002469387755102041,1436.1218496732029,150510.3173559985,0.00954168375232628
174.9143418663162,22.5870035,85135.62857692307,0.0002653061224489796,1476.2747385620917,144007.19395887383,0.010251395766962117
174.90505645619683,23.012554,81123.39179856115,0.00028367346938775514,1504.0884967320262,137220.4823363897,0.010961107781597958
174.89469286762002,23.3673196,77364.77435135134,0.0003020408163265306,1527.275790849673,130862.76864137077,0.011670819796233795
174.88377667417174,23.6243917,73732.17791719745,0.0003204081632653061,1544.077888888889,124718.21990176929,0.012380531810869634
174.87399147277355,23.8634013,70440.16046385541,0.00033877551020408165,1559.699431372549,119149.76162121427,0.013090243825505473
174.86070787317755,24.0753494,67410.97832,0.00035714285714285714,1573.5522483660131,114025.89012559477,0.013799955840141312
174.8543948044789,24.2057538,64460.97479347826,0.0003755102040816327,1582.075411764706,109035.94951994883,0.014509667854777152
174.84339926545508,24.2612768,61595.98773056995,0.00039387755102040817,1585.704366013072,104189.81454033664,0.01521937986941299
174.83429780817838,24.2693319,58871.15163861387,0.00041224489795918366,1586.230843137255,99580.7453860998,0.015929091884048827
174.82348612893088,24.180839,56154.55502369668,0.0004306122448979592,1580.4469934640522,94985.61333420065,0.01663880389868467
174.81372693985213,24.3391921,54210.01876818182,0.0004489795918367347,1590.796869281046,91696.42390330364,0.017348515913320504
174.80415171303716,24.3637582,52132.05903056768,0.00046734693877551023,1592.402496732026,88181.5482164112,0.018058227927956347
174.79336625563528,24.3469159,50126.00332352941,0.0004857142857142857,1591.3016928104576,84788.29843221839,0.018767939942592182
174.78400139552792,24.253148,48113.53246963562,0.0005040816326530613,1585.173071895425,81384.1974061549,0.019477651957228025
174.77303172318486,24.1979567,46316.40149609374,0.0005224489795918368,1581.565797385621,78344.34449143178,0.020187363971863864
174.76350870782733,24.1029416,44567.70333584905,0.0005408163265306123,1575.3556601307191,75386.41583867802,0.020897075986499702
174.75390661780733,24.0736355,43051.391952554746,0.0005591836734693878,1573.4402287581702,72821.57017856973,0.02160678800113554
174.7435153048985,23.9302492,41434.00038162544,0.0005775510204081633,1564.0685751633987,70085.74705074944,0.022316500015771377
174.73320291005277,23.8376299,40001.502229452046,0.0005959183673469389,1558.015026143791,67662.67174498164,0.02302621203040722
174.72320600744578,23.8282584,38790.18809302325,0.0006142857142857143,1557.4025098039215,65613.72992466939,0.023735924045043058
174.71363009189045,23.699489,37460.48261290322,0.0006326530612244898,1548.9862091503269,63364.52875960362,0.024445636059678897
174.7033174519025,23.6168098,36276.604394984315,0.0006510204081632654,1543.582339869281,61361.994885110726,0.02515534807431474
174.69271562549454,23.4896669,35091.270673780484,0.0006693877551020409,1535.2723464052287,59356.999022054835,0.025865060088950575
174.68127155525292,23.4366897,34077.08591394658,0.0006877551020408164,1531.8097843137255,57641.50218646651,0.026574772103586414
174.6745365069772,23.3397977,33053.47073121387,0.0007061224489795919,1525.476973856209,55910.05375972646,0.027284484118222253
174.6638024629077,23.1924225,32012.07612676056,0.0007244897959183674,1515.8446078431373,54148.53138304335,0.02799419613285809
174.65451564649763,23.1018053,31098.5840576923,0.000742857142857143,1509.9219150326796,52603.35656294619,0.028703908147493934
174.64520227775222,23.0012966,30216.180520107235,0.0007612244897959185,1503.3527189542485,51110.76809544937,0.02941362016212977
174.63515214839882,22.8553781,29317.10803403141,0.000779591836734694,1493.8155620915034,49589.98404710673,0.03012333217676561
174.62507545448295,22.762651,28526.084373401536,0.0007979591836734694,1487.7549673202616,48251.96494010665,0.030833044191401447
174.61426241725155,22.6660997,27765.972132499995,0.000816326530612245,1481.4444248366015,46966.23260059477,0.03154275620603729
174.6049222651148,22.5289996,26990.733017114908,0.0008346938775510205,1472.483633986928,45654.91310345973,0.032252468220673125
174.59587160894853,22.4092109,26269.1706722488,0.000853061224489796,1464.6543071895426,44434.388039071826,0.03296218023530897
174.58563701429603,22.2968068,25586.499606557372,0.0008714285714285715,1457.307633986928,43279.647700503585,0.0336718922499448
174.57571794992882,22.1716414,24917.670380733944,0.000889795918367347,1449.126888888889,42148.32087930683,0.03438160426458064
174.56600936503207,22.0776223,24310.19084719101,0.0009081632653061226,1442.9818496732028,41120.76726309172,0.03509131627921648
174.55540593639356,21.9540888,23694.941656387662,0.0009265306122448981,1434.9077647058825,40080.07124622959,0.03580102829385232
174.54464482780855,21.8571991,23131.80898272138,0.0009448979591836736,1428.5751045751633,39127.53048842021,0.03651074030848816
174.5359883762309,21.7452915,22574.561091101696,0.000963265306122449,1421.2608823529413,38184.94385867398,0.037220452323123994
174.52422680672848,21.6564627,22061.677178794176,0.0009816326530612245,1415.4550784313726,37317.39904491459,0.037930164337759836
174.5163859932413,21.5308967,21530.896699999998,0.001,1407.2481503267975,36419.58213045752,0.03863987635239567
170.2673707055637,5.15697813,51569.781299999995,0.0001,337.05739411764705,87230.45359764705,0.0038639876352395673
170.25807559218993,10.6974829,90375.28656896552,0.00011836734693877552,699.1818888888889,152870.09257547892,0.004573699649875407
170.24735428530522,16.3592806,119642.49991044778,0.00013673469387755102,1069.234026143791,202375.67958708422,0.005283411664511245
170.23808558904238,19.9000649,128303.05001315789,0.00015510204081632654,1300.6578366013073,217025.02838826968,0.005993123679147084
170.22937150076618,22.4811288,129597.09543529412,0.00017346938775510205,1469.3548235294118,219213.9104487197,0.006702835693782923
170.22118500778876,24.306499,126704.09053191487,0.00019183673469387756,1588.6600653594771,214320.38320038936,0.007412547708418762
170.21273484364036,25.9937617,123659.64303883494,0.00021020408163265308,1698.9386732026144,209170.69031666985,0.0081222597230546
