Temperature [K],Voltage [V],Resistance [𝛀],Current Source [A],Electric Field [V/cm],Restivity [𝛀 cm],Current Density [A/cm2]
145.07426549695157,0.23162065,2316206.5,1e-07,14.290249440101679,3393934.2420241493,4.210526315789473e-06
145.07011896659023,0.459284215,2296421.075,2e-07,28.336359457808655,3364942.685614778,8.421052631578947e-06
145.06502398070685,0.666159322,2220531.0733333337,3e-07,41.09988845221276,3253741.1691335104,1.263157894736842e-05
145.0610947373343,0.904864241,2262160.6025,4e-07,55.8272145135517,3314740.861742133,1.6842105263157893e-05
145.0559183111693,1.12468229,2249364.58,5e-07,69.38928141754533,3295990.8673334033,2.105263157894737e-05
145.04708353170233,1.33447349,2224122.4833333334,6e-07,82.33272397475368,3259003.657334,2.526315789473684e-05
145.04223257088577,1.56001434,2228591.9142857143,7e-07,96.2478693015307,3265552.708444792,2.9473684210526314e-05
145.03876381459253,1.77533232,2219165.4,8e-07,109.53229641603377,3251740.049851003,3.3684210526315786e-05
145.03358725266702,1.98886175,2209846.388888889,9e-07,122.7063757457599,3238084.9155131085,3.789473684210526e-05
145.02998296474112,2.2026786,2202678.6,1e-06,135.89818796542514,3227581.964178847,4.210526315789474e-05
145.0246708521626,2.41460971,2195099.7363636363,1.1e-06,148.97365608978117,3216476.6655748207,4.6315789473684214e-05
145.0211479161098,2.62592134,2188267.7833333337,1.2e-06,162.01090428977747,3206465.8140685125,5.052631578947368e-05
145.01662191310012,2.83718233,2182447.9461538466,1.2999999999999998e-06,175.04502816458236,3197938.014545255,5.473684210526315e-05
145.01196038674146,3.04731243,2176651.735714286,1.3999999999999997e-06,188.0093797622206,3189444.835251957,5.894736842105262e-05
145.0077321619967,3.25788582,2171923.88,1.5e-06,201.00108092767286,3182517.114688154,6.31578947368421e-05
145.00363987155598,3.4656541,2166033.8125,1.6e-06,213.8197158246084,3173886.4067715313,6.736842105263157e-05
144.99979128178123,3.67496067,2161741.5705882353,1.6999999999999998e-06,226.7332582689116,3167596.99052156,7.157894736842104e-05
144.99594267459148,3.88396573,2157758.738888889,1.7999999999999997e-06,239.62819851557538,3161760.9526360645,7.578947368421051e-05
144.9909559195932,4.09232003,2153852.647368421,1.9e-06,252.48298896244518,3156037.3620305643,8e-05
144.98767656773296,4.30068726,2150343.6300000004,2e-06,265.33857714874483,3150895.6036413447,8.421052631578948e-05
144.98355689813684,4.50843593,2146874.2523809527,2.1e-06,278.15600217172687,3145811.9293231014,8.842105263157894e-05
144.9797896110597,4.46905299,2031387.722727273,2.1999999999999997e-06,275.72620139064554,2976589.6741035604,9.26315789473684e-05
144.9758326911948,4.92543126,2141491.852173913,2.3e-06,303.883273384624,3137925.1056020954,9.68421052631579e-05
144.97130644701232,5.13219656,2138415.2333333334,2.4e-06,316.6400276401597,3133416.9401890803,0.00010105263157894737
144.96821663718552,5.34051536,2136206.1440000003,2.4999999999999998e-06,329.49262785116275,3130179.9645860465,0.00010526315789473683
144.96369035244285,5.54603522,2133090.4692307697,2.5999999999999997e-06,342.1725424628123,3125614.5705737667,0.0001094736842105263
144.96024810448728,5.75374059,2131015.0333333337,2.6999999999999996e-06,354.9872960150047,3122573.4371690233,0.00011368421052631577
144.95696863415077,5.95905336,2128233.342857143,2.8e-06,367.6544338394527,3118497.429888215,0.00011789473684210525
144.9522253844855,6.16548245,2126028.431034483,2.8999999999999998e-06,380.3904450189101,3115266.5755859017,0.00012210526315789474
144.9491896180451,6.37061962,2123539.8733333335,2.9999999999999997e-06,393.0467488879155,3111620.0953626647,0.0001263157894736842
144.94528666870826,6.57726489,2121698.351612903,3.1e-06,405.79609767835007,3108921.716084134,0.00013052631578947368
144.9421699350149,6.7824228,2119507.125,3.2e-06,418.4536811386759,3105710.9147011107,0.00013473684210526314
144.93832106688623,6.989163,2117928.1818181816,3.2999999999999997e-06,431.2088868049086,3103397.291398964,0.00013894736842105261
144.93414704426982,7.19339929,2115705.673529412,3.3999999999999996e-06,443.80960927426077,3100140.653018734,0.00014315789473684208
144.9308129044816,7.39829648,2113798.9942857143,3.4999999999999995e-06,456.4511071488065,3097346.798509759,0.00014736842105263155
144.92742509218743,7.6016071,2111557.527777778,3.6e-06,468.9947187552057,3094062.3806767045,0.00015157894736842105
144.92338652942686,7.80710599,2110028.645945946,3.6999999999999997e-06,481.6733395852743,3091822.1122027743,0.00015578947368421052
144.92010646200762,8.01310556,2108711.989473684,3.7999999999999996e-06,494.38285076164686,3089892.8172602933,0.00015999999999999999
144.91633889353758,8.21556713,2106555.674358974,3.9e-06,506.8740787127583,3086733.1716482076,0.00016421052631578948
144.91303242347195,8.422376,2105594.0,4e-06,519.6335210972156,3085324.0315147177,0.00016842105263157895
144.90986100135203,8.62463934,2103570.5707317074,4.1e-06,532.1125188946404,3082359.1033531,0.00017263157894736842
144.9063644196954,8.82697646,2101661.061904762,4.2e-06,544.5960686808611,3079561.102659631,0.0001768421052631579
144.9025426744818,9.03157977,2100367.3883720934,4.2999999999999995e-06,557.2194351042368,3077665.4845873546,0.00018105263157894736
144.8994253291038,9.23625295,2099148.3977272734,4.399999999999999e-06,569.8471122819791,3075879.29924932,0.0001852631578947368
144.8957659011777,9.43983906,2097742.013333333,4.5e-06,582.4077207356726,3073818.5261049382,0.00018947368421052632
144.8925402981457,9.64378981,2096476.0456521737,4.6e-06,594.9908263050413,3071963.5053792894,0.0001936842105263158
144.88966712273194,9.84625952,2094948.8340425533,4.7e-06,607.4825564679825,3069725.684279699,0.00019789473684210526
144.88573706868118,10.0510445,2093967.6041666667,4.8e-06,620.1171313462855,3068287.889473809,0.00020210526315789473
144.88215898465836,10.2509976,2092040.3265306123,4.9e-06,632.453594763177,3065463.85216846,0.0002063157894736842
144.87866228882757,10.4540098,2090801.9600000002,4.9999999999999996e-06,644.9787948150023,3063649.275371261,0.00021052631578947367
144.87535521715634,10.657392,2089684.705882353,5.0999999999999995e-06,657.5268226772704,3062012.1644284655,0.00021473684210526314
144.87256338739894,10.8573711,2087955.980769231,5.199999999999999e-06,669.8648902105712,3059479.06586559,0.0002189473684210526
144.86895796146484,11.0589195,2086588.5849056607,5.299999999999999e-06,682.299778508542,3057475.422561863,0.00022315789473684208
144.86600375643644,11.2645397,2086025.8703703703,5.4e-06,694.9858837755966,3056650.8777167443,0.00022736842105263157
144.86185620983844,11.4658728,2084704.1454545455,5.5e-06,707.4074887557609,3054714.155990786,0.00023157894736842104
144.8588742386324,11.6697548,2083884.7857142857,5.6e-06,719.9863526711623,3053513.5492750187,0.0002357894736842105
144.85570306878526,11.8708216,2082600.2807017544,5.7e-06,732.3915277974864,3051631.3658228605,0.00023999999999999998
144.85133854099118,10.0566862,1733911.4137931035,5.7999999999999995e-06,620.4652060981102,2540698.042212089,0.0002442105263157895
144.84860075132664,10.2351986,1734779.4237288139,5.899999999999999e-06,631.4788472572695,2541969.9359932463,0.0002484210526315789
144.84572742701388,10.404602,1734100.3333333337,5.999999999999999e-06,641.9304924020411,2540974.865758079,0.0002526315789473684
144.84288138012738,10.5761509,1733795.2295081967,6.1e-06,652.5145079989883,2540527.797537044,0.0002568421052631579
144.84017039560842,10.7461461,1733249.370967742,6.2e-06,663.0026653011113,2539727.9517582892,0.00026105263157894735
144.8374598572046,10.9145779,1732472.6825396826,6.3e-06,673.3943658495956,2538589.871258396,0.00026526315789473685
144.83445096750515,11.0827512,1731679.8750000002,6.4e-06,683.7701177791627,2537428.1714461115,0.0002694736842105263
144.83098090762115,11.2520941,1731091.4000000001,6.5e-06,694.2180302684428,2536565.8798270025,0.0002736842105263158
144.82878516644874,11.4218239,1730579.378787879,6.5999999999999995e-06,704.689813243832,2535815.615839547,0.00027789473684210523
144.82623740826966,11.58722,1729435.8208955226,6.699999999999999e-06,714.894220862151,2534139.9620113564,0.0002821052631578947
144.8237974291774,11.7563221,1728870.8970588238,6.799999999999999e-06,725.3272767656078,2533312.179879881,0.00028631578947368417
144.8207612030674,11.9260168,1728408.231884058,6.899999999999999e-06,735.7968941838441,2532634.237227,0.00029052631578947366
144.81721013271655,12.0946856,1727812.2285714287,7e-06,746.2032168703689,2531760.914381609,0.00029473684210526316
144.8145263541203,12.2605842,1726842.8450704226,7.1e-06,756.4386271231407,2530340.4780527595,0.0002989473684210526
144.81205950792867,12.4298959,1726374.4305555557,7.2e-06,766.8846146727295,2529654.1108996286,0.0003031578947368421
144.8090778162499,12.5996111,1725974.1232876715,7.2999999999999996e-06,777.355496875058,2529067.5412031,0.00030736842105263154
144.8069634284631,12.7624364,1724653.5675675678,7.3999999999999995e-06,787.401294398549,2527132.532698046,0.00031157894736842103
144.8040085524517,12.9306535,1724087.1333333335,7.499999999999999e-06,797.7797486472981,2526302.537383111,0.0003157894736842105
144.80162263149566,13.0972816,1723326.5263157897,7.599999999999999e-06,808.0601667047131,2525188.0209522285,0.00031999999999999997
144.79896609207316,13.2659182,1722846.5194805192,7.7e-06,818.4645027547615,2524484.667587738,0.0003242105263157895
144.7954149303083,13.4369686,1722688.282051282,7.8e-06,829.0177625043959,2524252.8024973595,0.00032842105263157896
144.79324638567414,13.601678,1721731.3924050631,7.9e-06,839.1798029404688,2522850.6733969785,0.00033263157894736846
144.7901827611342,13.770369,1721296.1250000002,8e-06,849.5874952956202,2522212.8766588722,0.0003368421052631579
144.78787866803177,13.9335758,1720194.5432098764,8.1e-06,859.6568301425814,2520598.7303563342,0.0003410526315789474
144.7849778486477,14.1012181,1719660.7439024388,8.200000000000001e-06,869.9998210793236,2519816.5549553577,0.0003452631578947369
144.78318859573437,14.2710833,1719407.6265060243,8.3e-06,880.4799577993992,2519445.662377799,0.00034947368421052634
144.77952912057097,14.4357118,1718537.119047619,8.400000000000001e-06,890.6370069655671,2518170.1089800256,0.00035368421052631583
144.77684522249882,14.6060927,1718363.8470588236,8.5e-06,901.148960717657,2517916.213769924,0.0003578947368421053
144.77486629135302,14.7691174,1717339.2325581396,8.6e-06,911.2070605800733,2516414.8475321787,0.00036210526315789477
144.77128773897496,14.9368086,1716874.5517241382,8.7e-06,921.5530684896012,2515733.9513365547,0.0003663157894736842
144.76898313959117,15.1014804,1716077.3181818181,8.8e-06,931.7127891265587,2514565.76610861,0.0003705263157894737
144.76743809480706,15.2682356,1715532.0898876402,8.900000000000001e-06,942.0010488453448,2513766.8438288695,0.0003747368421052632
144.7642120030904,15.4319399,1714659.9888888889,9e-06,952.1010778428337,2512488.9554185886,0.00037894736842105265
144.76136568214912,15.6056909,1714911.0879120878,9.100000000000001e-06,962.8209559299867,2512856.8904766133,0.00038315789473684214
144.75851889679706,15.7652159,1713610.4239130435,9.2e-06,972.6631355540063,2510951.02928344,0.0003873684210526316
144.75567255669492,15.9317809,1713094.7204301073,9.3e-06,982.9396605442892,2510195.369669555,0.0003915789473684211
144.7533410795405,16.0964007,1712383.0531914895,9.4e-06,993.0961729484278,2509152.564630336,0.0003957894736842105
144.7509823058268,16.2650715,1712112.7894736843,9.5e-06,1003.5026190285226,2508756.5475713066,0.0004
144.74889460821524,16.4280433,1711254.5104166665,9.6e-06,1013.5574551310132,2507498.912433496,0.00040421052631578946
144.74602094542433,16.5952288,1710848.3298969073,9.7e-06,1023.8722629763764,2506903.736668963,0.00040842105263157896
144.74339152176785,16.7593684,1710139.632653061,9.800000000000001e-06,1033.9991485843673,2505865.283559053,0.00041263157894736845
144.74073434463037,16.9209971,1709191.6262626264,9.9e-06,1043.971119734951,2504476.171081322,0.0004168421052631579
144.7377796921174,17.0849871,1708498.7099999997,1e-05,1054.0887755039087,2503460.8418217828,0.0004210526315789474
143.29665961361908,0.277048522,2770485.22,1e-07,17.09300309100893,4059588.2341146218,4.210526315789473e-06
143.29611650025998,0.551669208,2758346.04,2e-07,34.03621650635785,4041800.7101299954,8.421052631578947e-06
143.2953560498248,0.81465258,2715508.6,3e-07,50.26144506209781,3979031.067416077,1.263157894736842e-05
143.2950302724597,1.08121515,2703037.875,4e-07,66.70749862724654,3960757.7309927633,1.6842105263157893e-05
143.29326514920672,1.32921137,2658422.7399999998,5e-07,82.0080680885719,3895383.2342071654,2.105263157894737e-05
143.29228735858865,1.60155813,2669263.55,6e-07,98.81098758043719,3911268.2583923056,2.526315789473684e-05
143.2913637873458,1.85831102,2654730.0285714287,7e-07,114.65181542789806,3889972.309160827,2.9473684210526314e-05
143.29076644988874,2.11213521,2640169.0125,8e-07,130.31195190118643,3868636.0720664724,3.3684210526315786e-05
143.28970709749,2.36454084,2627267.6,9e-07,145.88456778317283,3849731.6498337276,3.789473684210526e-05
143.28870242007594,2.61923823,2619238.2300000004,1e-06,161.59857788910622,3837966.224866273,4.210526315789474e-05
143.2872904019773,2.87011842,2609198.5636363635,1.1e-06,177.07707902741188,3823255.1153645744,4.6315789473684214e-05
143.2868283858452,3.11971148,2599759.566666667,1.2e-06,192.47616838286558,3809424.1659108815,5.052631578947368e-05
143.285877925802,3.36988229,2592217.1461538468,1.2999999999999998e-06,207.91090305584177,3798372.2673663404,5.473684210526315e-05
143.28449278550534,3.61837453,2584553.235714286,1.3999999999999997e-06,223.2420753564532,3787142.3497969746,5.894736842105262e-05
143.28384122198833,3.86372405,2575816.033333333,1.5e-06,238.37935193697058,3774339.739002034,6.31578947368421e-05
143.28264608000555,4.11432915,2571455.71875,1.6e-06,253.84088090669596,3767950.5759587684,6.736842105263157e-05
143.28066358939418,4.36149498,2565585.282352941,1.6999999999999998e-06,269.09021797474134,3759348.6334706517,7.157894736842104e-05
143.27968578370454,4.60945245,2560806.916666667,1.7999999999999997e-06,284.38839668564873,3752346.9007134214,7.578947368421051e-05
143.27862687258914,4.85338595,2554413.6578947366,1.9e-06,299.43830938469796,3742978.867308724,8e-05
143.27699703984842,5.09679516,2548397.58,2e-06,314.4558750763498,3734163.5165316537,8.421052631578948e-05
143.27645391342702,5.34642339,2545915.9000000004,2.1e-06,329.85713430773126,3730527.11419458,8.842105263157894e-05
143.27487875363536,5.5785936,2535724.3636363638,2.1999999999999997e-06,344.1812898329868,3715593.4697879264,9.26315789473684e-05
143.27406406175652,5.83563635,2537233.195652174,2.3e-06,360.04000111054216,3717804.359293642,9.68421052631579e-05
143.27221733269573,6.07668582,2531952.425,2.4e-06,374.91197843080397,3710066.4532214976,0.00010105263157894737
143.27069638665432,6.32346993,2529387.972,2.4999999999999998e-06,390.13776460208663,3706308.763719823,0.00010526315789473683
143.2698543517988,6.56511245,2525043.2500000005,2.5999999999999997e-06,405.04633120068115,3699942.448467761,0.0001094736842105263
143.26602508710712,6.81046205,2522393.351851852,2.6999999999999996e-06,420.18361271694135,3696059.556306429,0.00011368421052631577
143.26741025870047,7.05010449,2517894.4607142857,2.8e-06,434.968780809832,3689467.337226254,0.00011789473684210525
143.2650203805842,7.29522094,2515593.427586207,2.8999999999999998e-06,450.091677720674,3686095.63650552,0.00012210526315789474
143.264069895181,7.5369208,2512306.9333333336,2.9999999999999997e-06,465.0037820129193,3681279.9409356113,0.0001263157894736842
143.26246737246518,7.77795997,2509019.3451612904,3.1e-06,479.87512385629594,3676462.642447429,0.00013052631578947368
143.26089218571485,8.01916868,2505990.2125,3.2e-06,494.75692577259804,3672024.0584685015,0.00013473684210526314
143.25871963504954,8.2585689,2502596.6363636367,3.2999999999999997e-06,509.52714967023076,3667051.4559599943,0.00013894736842105261
143.2569270941402,8.49906615,2499725.3382352944,3.3999999999999996e-06,524.3650567918907,3662844.14670806,0.00014315789473684208
143.25605770582632,8.73888207,2496823.448571429,3.4999999999999995e-06,539.1609280430398,3658592.011720628,0.00014736842105263155
143.25532455741492,8.97533171,2493147.6972222226,3.6e-06,553.7491106408446,3653205.938255572,0.00015157894736842105
143.2538309192746,9.21729992,2491162.1405405407,3.6999999999999997e-06,568.6777712653394,3650296.504743733,0.00015578947368421052
143.252146813935,9.45583988,2488378.915789474,3.7999999999999996e-06,583.3949198867247,3646218.2492920295,0.00015999999999999999
143.25062583053366,9.69636482,2486247.38974359,3.9e-06,598.2345353923607,3643094.927068863,0.00016421052631578948
143.24886061137596,9.93074244,2482685.61,4e-06,612.6948810177502,3637875.8560428917,0.00016842105263157895
143.24682381530002,10.172547,2481109.024390244,4.1e-06,627.613444963383,3635565.6872878894,0.00017263157894736842
143.24554705597555,10.4096965,2478499.166666667,4.2e-06,642.2448066731243,3631741.466306358,0.0001768421052631579
143.2436186990653,10.6480956,2476301.3023255817,4.2999999999999995e-06,656.9532646853772,3628520.938669235,0.00018105263157894736
143.24307555045593,10.8856519,2474011.7954545454,4.399999999999999e-06,671.6097246472486,3625166.1273573088,0.0001852631578947368
143.24144610246077,11.1222312,2471606.933333333,4.5e-06,686.2059068501941,3621642.286153802,0.00018947368421052632
143.23921882041208,11.3626508,2470141.4782608696,4.6e-06,701.0390232165003,3619494.9568243218,0.0001936842105263158
143.2380782929034,11.597459,2467544.4680851065,4.7e-06,715.5259342435667,3615689.561337172,0.00019789473684210526
143.2361230340876,11.8341367,2465445.1458333335,4.8e-06,730.1281874101542,3612613.4272898254,0.00020210526315789473
143.23332524241508,9.75781045,1991389.887755102,4.9e-06,602.0255332144642,2917980.900784393,0.0002063157894736842
143.2300116239823,9.95635094,1991270.188,4.9999999999999996e-06,614.2748431359242,2917805.5048956405,0.00021052631578947367
143.2285995044499,10.1524768,1990681.7254901964,5.0999999999999995e-06,626.3751781494667,2916943.231578399,0.00021473684210526314
143.22702425238344,10.3463193,1989676.7884615385,5.199999999999999e-06,638.334637192056,2915470.6987137175,0.0002189473684210526
143.22550322219305,10.5372716,1988164.4528301891,5.299999999999999e-06,650.1157801866946,2913254.6753649055,0.00022315789473684208
143.22305899638286,10.7310724,1987235.6296296297,5.4e-06,662.0726664733502,2911893.671989272,0.00022736842105263157
143.2229232058455,10.9219598,1985810.8727272728,5.5e-06,673.8498053466434,2909805.977633233,0.00023157894736842104
143.22115747113057,11.1162916,1985052.0714285716,5.6e-06,685.8394526261237,2908694.1071197214,0.0002357894736842105
143.21969111098585,11.3083192,1983915.6491228072,5.7e-06,697.6869381736518,2907028.909056883,0.00023999999999999998
143.21830585846072,11.500415,1982830.1724137934,5.7999999999999995e-06,709.5386314419156,2905438.361507844,0.0002442105263157895
143.21689326300438,11.6913029,1981576.7627118647,5.899999999999999e-06,721.3158011636015,2903601.7419721247,0.0002484210526315789
143.21550846140838,11.8819877,1980331.2833333334,5.999999999999999e-06,733.0804402682577,2901776.74272852,0.0002526315789473684
143.21412320178513,12.0774986,1979917.8032786886,6.1e-06,745.1428342269086,2901170.8709654226,0.0002568421052631579
143.2121947706582,12.2691935,1978902.177419355,6.2e-06,756.9697932540736,2899682.675771653,0.00026105263157894735
143.21061948693543,12.4578137,1977430.7460317463,6.3e-06,768.6070531764591,2897526.589355699,0.00026526315789473685
143.20969582335587,12.6505799,1976653.1093750002,6.4e-06,780.5001079693739,2896387.1194175985,0.0002694736842105263
143.20787628962555,12.8406623,1975486.5076923077,6.5e-06,792.2275809307578,2894677.699554692,0.0002736842105263158
143.2061652042421,13.0317417,1974506.3181818184,6.5999999999999995e-06,804.0165655867673,2893241.429194807,0.00027789473684210523
