Temperature [K],Voltage [V],Resistance [𝛀],Current Source [A],Electric Field [V/cm],Restivity [𝛀 cm],Current Density [A/cm2]
149.15769553096067,0.158878369,1588783.69,1e-07,9.802284570251045,2328042.5854346235,4.210526315789473e-06
149.15432369284528,0.315305088,1576525.4400000002,2e-07,19.453310217604564,2310080.5883405423,8.421052631578947e-06
149.15116727939284,0.453574461,1511914.87,3e-07,27.98408599297891,2215406.807777497,1.263157894736842e-05
149.14720160705642,0.62130408,1553260.2000000002,4e-07,38.33246423128892,2275990.0637327796,1.6842105263157893e-05
149.1448277174001,0.77206696,1544133.92,5e-07,47.63404922169506,2262617.3380305152,2.105263157894737e-05
149.14145538077312,0.921542283,1535903.805,6e-07,56.85619608472203,2250557.7616869137,2.526315789473684e-05
149.1245677182608,1.36856683,1520629.8111111112,9e-07,84.43617344200194,2228176.7991639404,3.789473684210526e-05
149.120655795176,1.51378793,1513787.93,1e-06,93.39584842333866,2218151.400054293,4.210526315789474e-05
149.11720280690935,1.65957484,1508704.4,1.1e-06,102.39043206258523,2210702.510442181,4.6315789473684214e-05
149.1140191124775,1.80428737,1503572.8083333333,1.2e-06,111.3187299099844,2203183.196135108,5.052631578947368e-05
149.1094327450589,1.94867312,1498979.3230769234,1.2999999999999998e-06,120.22686648198764,2196452.3684209283,5.473684210526315e-05
149.10544019292084,2.09197161,1494265.4357142858,1.3999999999999997e-06,129.06792260755293,2189545.1156638446,5.894736842105262e-05
149.1015553478936,2.23465001,1489766.6733333333,1.5e-06,137.87072117371966,2182953.085250561,6.31578947368421e-05
149.09756230981196,2.37830677,1486441.7312500002,1.6e-06,146.73388140643993,2178081.052126843,6.736842105263157e-05
149.09367743235833,2.52013901,1482434.711764706,1.6999999999999998e-06,155.48447462102752,2172209.571911414,7.157894736842104e-05
149.08914528142904,2.66334884,1479638.2444444445,1.7999999999999997e-06,164.32006070963644,2168111.9121410367,7.578947368421051e-05
149.0857460407887,2.80453589,1476071.5210526315,1.9e-06,173.03084777552243,2162885.5971940304,8e-05
149.08161805166634,2.9466507,1473325.35,2e-06,181.79887465064198,2158861.6364763733,8.421052631578948e-05
149.0768156205369,3.08731933,1470152.0619047622,2.1e-06,190.47767686925837,2154211.82173566,8.842105263157894e-05
149.07328145013497,3.09621126,1407368.7545454549,2.1999999999999997e-06,191.02628036253031,2062215.5266409528,9.26315789473684e-05
149.06896465666537,3.37184442,1466019.3130434782,2.3e-06,208.03196016855563,2148156.110436172,9.68421052631579e-05
149.06483704673593,3.51140349,1463084.7875,2.4e-06,216.64230610242905,2143856.154138621,0.00010105263157894737
149.0607899889059,3.65232694,1460930.776,2.4999999999999998e-06,225.33682989579415,2140699.8840100444,0.00010526315789473683
149.05620336271667,3.79359592,1459075.353846154,2.5999999999999997e-06,234.0526717792736,2137981.136445288,0.0001094736842105263
149.05237263235696,3.93475308,1457315.9555555559,2.6999999999999996e-06,242.76161472825655,2135403.092517072,0.00011368421052631577
149.04835222721056,4.07606644,1455738.0142857144,2.8e-06,251.48019471505341,2133090.9373151856,0.00011789473684210525
149.04425168598914,4.21355294,1452949.2896551725,2.8999999999999998e-06,259.96266974327966,2129004.622897549,0.00012210526315789474
149.03971884484966,4.35342093,1451140.3100000003,2.9999999999999997e-06,268.5920750479693,2126353.92746309,0.0001263157894736842
149.0345386869347,4.49324149,1449432.7387096775,3.1e-06,277.2185540741472,2123851.8255680637,0.00013052631578947368
149.03089617331054,4.63556941,1448615.4406249998,3.2e-06,285.9997291511139,2122654.2397934236,0.00013473684210526314
149.0260129106294,4.77401498,1446671.206060606,3.2999999999999997e-06,294.5413757149115,2119805.3555239844,0.00013894736842105261
149.02196568606433,4.91336544,1445107.4823529413,3.3999999999999996e-06,303.1388510824701,2117514.0332966666,0.00014315789473684208
149.01732500408073,5.05357204,1443877.7257142859,3.4999999999999995e-06,311.7891475355219,2115712.0725624706,0.00014736842105263155
149.01265759202315,5.19264848,1442402.3555555556,3.6e-06,320.3697167500602,2113550.214670536,0.00015157894736842105
149.00871804466695,5.33270805,1441272.445945946,3.6999999999999997e-06,329.01094192481634,2111894.5596525376,0.00015578947368421052
149.00394240213262,5.47048023,1439600.0605263158,3.7999999999999996e-06,337.51104249057585,2109444.0155660994,0.00015999999999999999
148.99997611074147,5.61064831,1438627.771794872,3.9e-06,346.1589623834702,2108019.32220703,0.00016421052631578948
148.9952547446012,5.74725315,1436813.2875,4e-06,354.58704182425055,2105360.5608314876,0.00016842105263157895
148.9908837252656,5.89053769,1436716.5097560978,4.1e-06,363.4272372796654,2105218.752534647,0.00017263157894736842
148.98659326214204,6.02862197,1435386.1833333333,4.2e-06,371.9465934120173,2103269.4270322407,0.0001768421052631579
148.98179079925794,6.16749871,1434302.0255813955,4.2999999999999995e-06,380.514841778595,2101680.8121492164,0.00018105263157894736
148.97782441450053,6.31068721,1434247.0931818185,4.399999999999999e-06,389.34911187478025,2101600.319778644,0.0001852631578947368
148.97312964553336,6.44821057,1432935.6822222222,4.5e-06,397.8338610465009,2099678.7110787546,0.00018947368421052632
148.96730132728229,6.58594765,1431727.75,4.6e-06,406.3317960551076,2097908.7296323488,0.0001936842105263158
148.96371287601374,6.71959375,1429700.7978723403,4.7e-06,414.5773307502946,2094938.6394296803,0.00019789473684210526
148.95917964702573,6.86065949,1429304.0604166668,4.8e-06,423.2806333791946,2094357.3005741402,0.00020210526315789473
148.9546735577251,7.00014422,1428600.86122449,4.9e-06,431.8863927740726,2093326.9037518825,0.0002063157894736842
148.95022131747774,7.1386715,1427734.3,4.9999999999999996e-06,440.43308058217093,2092057.132765312,0.00021052631578947367
148.94547253976828,7.27862319,1427181.017647059,5.0999999999999995e-06,449.0676499077634,2091246.4088841924,0.00021473684210526314
148.94112845098556,7.41639847,1426230.475,5.199999999999999e-06,457.5679417335563,2089853.58003307,0.0002189473684210526
148.93632530318465,7.55415771,1425312.7754716983,5.299999999999999e-06,466.0672439429182,2088508.8761593036,0.00022315789473684208
148.93154929304387,7.69288196,1424607.7703703705,5.4e-06,474.62608416675414,2087475.8331408168,0.00022736842105263157
148.9272318495235,7.83209664,1424017.5709090908,5.5e-06,483.215182344848,2086611.0146709348,0.00023157894736842104
148.92321136236134,7.97141604,1423467.1500000001,5.6e-06,491.81074141026517,2085804.483659607,0.0002357894736842105
148.9179766903549,8.11039538,1422876.3824561404,5.7e-06,500.3853198669818,2084938.8327790909,0.00023999999999999998
148.91282257201104,8.2491947,1422274.9482758623,5.7999999999999995e-06,508.94879166846624,2084057.5520907023,0.0002442105263157895
148.9087209872658,8.3873979,1421592.8644067799,5.899999999999999e-06,517.475484782488,2083058.0955227276,0.0002484210526315789
148.90378321682903,8.52264902,1420441.5033333334,5.999999999999999e-06,525.8200440515045,2081371.0077038722,0.0002526315789473684
148.89892600445333,8.66078451,1419800.739344262,6.1e-06,534.3425596762153,2080432.0971000183,0.0002568421052631579
148.89447349996993,8.80250341,1419758.614516129,6.2e-06,543.0861601771932,2080370.3716465062,0.00026105263157894735
148.88988606273526,8.9456392,1419942.7301587302,6.3e-06,551.9171782358422,2080640.156047818,0.00026526315789473685
148.8847322428872,9.08243819,1419130.9671875,6.4e-06,560.3572361074265,2079450.6808674033,0.0002694736842105263
148.8799831340071,9.22018259,1418489.6292307694,6.5e-06,568.8556227364993,2078510.9292295168,0.0002736842105263158
148.8746128543749,9.35980195,1418151.8106060605,6.5999999999999995e-06,577.4696883695391,2078015.9240570539,0.00027789473684210523
148.87051110263798,9.49354614,1416947.185074627,6.699999999999999e-06,585.7212749023648,2076250.787900174,0.0002821052631578947
148.8660856274192,9.63370412,1416721.1941176474,6.799999999999999e-06,594.3685716577311,2075919.643657517,0.00028631578947368417
148.86157909134815,9.77043798,1416005.5043478264,6.899999999999999e-06,602.8046112177095,2074870.944408783,0.00029052631578947366
148.85658674405653,9.90904294,1415577.562857143,7e-06,611.3560916320652,2074243.882323078,0.00029473684210526316
148.85183749266076,10.0460958,1414943.0704225353,7.1e-06,619.8118124664525,2073314.1614194715,0.0002989473684210526
148.8468450934966,10.1862376,1414755.2222222222,7.2e-06,628.4581109678376,2073038.9077064088,0.0003031578947368421
148.84258113707384,10.3250265,1414387.191780822,7.2999999999999996e-06,637.0209398888225,2072499.6331999362,0.00030736842105263154
148.8378318147183,10.4629939,1413918.0945945948,7.3999999999999995e-06,645.5330849009459,2071812.2657293875,0.00031157894736842103
148.83308246829387,10.6010484,1413473.12,7.499999999999999e-06,654.0506037030411,2071160.2450596306,0.0003157894736842105
148.82898053484934,10.7393078,1413066.815789474,7.599999999999999e-06,662.5807641763789,2070564.8880511844,0.00031999999999999997
148.82417681291912,10.8792851,1412894.1688311687,7.7e-06,671.2169135566347,2070311.908697412,0.0003242105263157895
148.8195623190434,11.0173481,1412480.5256410255,7.8e-06,679.7349567814022,2069705.7978920897,0.00032842105263157896
148.8146775047896,11.1558759,1412136.1898734176,7.9e-06,688.2816766718287,2069201.2431589784,0.00033263157894736846
148.8099547539482,11.2928868,1411610.85,8e-06,696.7348087091182,2068431.4633551945,0.0003368421052631579
148.80539406896784,11.432048,1411363.9506172838,8.1e-06,705.3206073431514,2068069.6820246722,0.0003410526315789474
148.800590678826,11.5591445,1409651.7682926827,8.200000000000001e-06,713.16205277543,2065560.8235873731,0.0003452631578947369
148.79565188607657,11.6971935,1409300.4216867469,8.3e-06,721.6792322452077,2065045.9958823712,0.00034947368421052634
148.7906324739342,11.8355345,1408992.2023809522,8.400000000000001e-06,730.2144271761999,2064594.3625517555,0.00035368421052631583
148.78588243536228,11.9720325,1408474.4117647058,8.5e-06,738.6359149324729,2063835.6446642624,0.0003578947368421053
148.77948652987655,10.6670499,1240354.6395348837,8.6e-06,658.1226840569338,1817489.9705060672,0.00036210526315789477
148.775114505331,10.8011441,1241510.816091954,8.7e-06,666.3958650814707,1819184.1144465434,0.0003663157894736842
148.77122829444758,10.9289483,1241925.9431818181,8.8e-06,674.28097332848,1819792.3996081133,0.0003705263157894737
148.76661308676609,11.0533111,1241945.06741573,8.900000000000001e-06,681.9537582596572,1819820.4223221187,0.0003747368421052632
148.7621871206009,11.1756582,1241739.8,9e-06,689.5021809813492,1819519.644256338,0.00037894736842105265
148.7585168354833,11.2970867,1241438.0989010988,9.100000000000001e-06,696.9939290363579,1819077.5620454396,0.00038315789473684214
148.75481936862687,11.4176739,1241051.5108695652,9.2e-06,704.4337715861627,1818511.0951273222,0.0003873684210526316
148.75044722877564,11.5382907,1240676.4193548386,9.3e-06,711.8754403608028,1817961.4740396845,0.0003915789473684211
148.74575132133043,11.6593194,1240353.1276595744,9.4e-06,719.3425220411765,1817487.7551572279,0.0003957894736842105
148.74216202200805,11.7792219,1239918.094736842,9.5e-06,726.740120802305,1816850.3020057625,0.0004
148.73768160443464,11.9020188,1239793.625,9.6e-06,734.3162947378813,1816667.9166692377,0.00040421052631578946
148.73366030383403,12.0250896,1239699.9587628865,9.7e-06,741.9093674228636,1816530.6676590734,0.00040842105263157896
148.7289914801341,12.1570159,1240511.826530612,9.800000000000001e-06,750.0487959872412,1817720.2963976506,0.00041263157894736845
148.72405230927302,12.2775044,1240151.9595959596,9.9e-06,757.4825490643683,1817192.98386654,0.0004168421052631579
148.72081339803412,12.4017084,1240170.8399999999,1e-05,765.1455365460907,1817220.6492969655,0.0004210526315789474
147.20125118003386,0.18613728,1861372.8,1e-07,11.484071741021575,2727467.038492624,4.210526315789473e-06
147.20003473803132,0.370231929,1851159.6450000003,2e-07,22.84211971644158,2712501.716327438,8.421052631578947e-06
147.19854797334534,0.550949968,1836499.8933333333,3e-07,33.99184171072845,2691020.802099336,1.263157894736842e-05
147.19773700975153,0.729872023,1824680.0575,4e-07,45.03075726633885,2673701.21268887,1.6842105263157893e-05
147.1964661358005,0.906773342,1813546.6840000001,5e-07,55.94499990745483,2657387.4956041044,2.105263157894737e-05
147.1954388220304,1.08279984,1804666.4000000001,6e-07,66.80526890543734,2644375.227506895,2.526315789473684e-05
147.19381688849265,1.2497918,1785416.857142857,7e-07,77.10813595503538,2616168.898474415,2.9473684210526314e-05
147.19295194678654,1.42927861,1786598.2625,8e-07,88.18189507844747,2617900.0101414095,3.3684210526315786e-05
147.19214097813716,1.60039708,1778218.977777778,9e-07,98.73935452823555,2605621.855606216,3.789473684210526e-05
147.1914919305528,1.77152247,1771522.4700000002,1e-06,109.29724091977569,2595809.4718446727,4.210526315789474e-05
147.19130279500484,1.94190915,1765371.9545454546,1.1e-06,119.80955127928286,2586797.129893607,4.6315789473684214e-05
147.19024826154305,2.11026572,1758554.7666666668,1.2e-06,130.19661037863318,2576807.913743782,5.052631578947368e-05
147.190194287539,2.27869642,1752843.4000000004,1.2999999999999998e-06,140.58824306065412,2568439.0559157967,5.473684210526315e-05
147.1899511776989,2.44637292,1747409.228571429,1.3999999999999997e-06,150.93334402744273,2560476.3718941184,5.894736842105262e-05
147.1893833163981,2.61255658,1741704.3866666667,1.5e-06,161.18634156574103,2552117.0747908996,6.31578947368421e-05
147.1891941804058,2.77933602,1737085.0125000002,1.6e-06,171.47609681459502,2545348.3120916453,6.736842105263157e-05
147.18905901844929,2.94545699,1732621.7588235296,1.6999999999999998e-06,181.72522658144285,2538808.3125348636,7.157894736842104e-05
147.18930212853098,3.11145826,1728587.9222222224,1.7999999999999997e-06,191.96697124312854,2532897.5372357243,7.578947368421051e-05
147.18881545473798,3.27731346,1724901.8210526314,1.9e-06,202.1997038554321,2527496.298192901,8e-05
147.18797772206418,3.44311204,1721556.02,2e-06,212.42894319577007,2522593.7004497694,8.421052631578948e-05
147.18819361859417,3.60679103,1717519.5380952384,2.1e-06,222.52741064763117,2516679.048991067,8.842105263157894e-05
147.18819361859417,3.61376425,1642620.1136363638,2.1999999999999997e-06,222.95763590259313,2406929.023948449,9.26315789473684e-05
147.1883020204037,3.93706764,1711768.5391304349,2.3e-06,242.90441563890107,2508252.1180103915,9.68421052631579e-05
147.18859910479367,4.09963913,1708182.9708333334,2.4e-06,252.9345539013962,2502998.1896492336,0.00010105263157894737
147.18854513069047,4.26336266,1705345.0640000002,2.4999999999999998e-06,263.0357693280604,2498839.808616574,0.00010526315789473683
147.1891941804058,4.42627031,1702411.6576923078,2.5999999999999997e-06,273.0866475817945,2494541.4923337004,0.0001094736842105263
147.1889238564724,4.58947285,1699804.7592592596,2.6999999999999996e-06,283.1557196004516,2490721.6075965655,0.00011368421052631577
147.18889664264904,4.75209181,1697175.6464285713,2.8e-06,293.1887866093298,2486869.172132708,0.00011789473684210525
147.1894105302066,4.91416537,1694539.7827586208,2.8999999999999998e-06,303.18820419167963,2483006.844673238,0.00012210526315789474
147.1898699898832,5.07586067,1691953.5566666669,2.9999999999999997e-06,313.16428434814264,2479217.2510894625,0.0001263157894736842
147.19062698660628,5.23881488,1689940.2838709676,3.1e-06,323.2180352041855,2476267.205193357,0.00013052631578947368
147.19062698660628,5.39897773,1687180.5406250001,3.2e-06,333.0995681225052,2472223.3571592188,0.00013473684210526314
147.19038342332044,5.5599422,1684830.96969697,3.2999999999999997e-06,343.0305584176009,2468780.5340660675,0.00013894736842105261
147.19089731002677,5.71988233,1682318.3323529414,3.3999999999999996e-06,352.8983502279697,2465098.7699747887,0.00014315789473684208
147.19116763336584,5.88121662,1680347.605714286,3.4999999999999995e-06,362.85215722808687,2462211.0669048754,0.00014736842105263155
147.1924652749725,6.04161889,1678227.4694444444,3.6e-06,372.7484615906665,2459104.4341050917,0.00015157894736842105
147.1914919305528,6.20116211,1675989.7594594597,3.6999999999999997e-06,382.59176533010873,2455825.5207000226,0.00015578947368421052
147.193384190963,6.3619818,1674205.7368421054,3.7999999999999996e-06,392.51382316467493,2453211.3947792184,0.00015999999999999999
147.19414118472238,6.52203463,1672316.571794872,3.9e-06,402.388568202711,2450443.2037985604,0.00016421052631578948
147.1946278556278,6.68157375,1670393.4375,4e-06,412.2316189853347,2447625.2377254246,0.00016842105263157895
147.1946818293653,6.84072175,1668468.7195121953,4.1e-06,422.05053892141683,2444804.9510691827,0.00017263157894736842
147.19519571361073,6.99662605,1665863.3452380954,4.2e-06,431.6693329960576,2440987.2996800877,0.0001768421052631579
147.1966012966417,7.15660763,1664327.3558139536,4.2999999999999995e-06,441.5396821381638,2438736.6164607885,0.00018105263157894736
147.19746668839088,7.3137325,1662211.931818182,4.399999999999999e-06,451.2337814576483,2435636.888549807,0.0001852631578947368
147.19860194684708,7.47123676,1660274.8355555555,4.5e-06,460.9512879203865,2432798.464024262,0.00018947368421052632
147.19852075981382,7.63491248,1659763.5826086956,4.6e-06,471.0495536237607,2432049.3257748513,0.0001936842105263158
147.19914258880348,7.78832333,1657090.070212766,4.7e-06,480.51450984989174,2428131.8316882825,0.00019789473684210526
147.1995480700571,7.94682771,1655589.1062500002,4.8e-06,490.29372050122475,2425932.4712300184,0.00020210526315789473
147.20044021888197,8.10355353,1653786.4346938776,4.9e-06,499.9631997186627,2423291.0190445385,0.0002063157894736842
147.2012783934826,8.25860825,1651721.6500000001,4.9999999999999996e-06,509.52957743871974,2420265.492833919,0.00021052631578947367
147.20303547341229,8.41307038,1649621.6431372552,5.0999999999999995e-06,519.0593942609652,2417188.355627044,0.00021473684210526314
147.20373848584384,8.56942707,1647966.7442307693,5.199999999999999e-06,528.7060993441632,2414763.434504592,0.0002189473684210526
147.2048737363695,8.72600905,1646416.8018867928,5.299999999999999e-06,538.3667040960496,2412492.3060907885,0.00022315789473684208
147.20573912014495,8.88136921,1644698.001851852,5.4e-06,547.9519264821112,2409973.7507315073,0.00022736842105263157
147.20600943901496,9.03671645,1643039.3545454545,5.5e-06,557.5363517457106,2407543.3370837504,0.00023157894736842104
147.20698276769497,9.19346467,1641690.119642857,5.6e-06,567.2072129711321,2405566.305011498,0.0002357894736842105
147.20798285501144,9.34900301,1640175.9666666668,5.7e-06,576.8034284903415,2403347.6187097565,0.00023999999999999998
147.2087398364618,9.50242303,1638348.7982758621,5.7999999999999995e-06,586.2689504759907,2400670.2713456512,0.0002442105263157895
147.20982110784018,9.65664266,1636719.0949152543,5.899999999999999e-06,595.7838058278783,2398282.269222392,0.0002484210526315789
147.21098356383044,9.80949944,1634916.5733333335,5.999999999999999e-06,605.2145777163553,2395641.0367939062,0.0002526315789473684
147.2110647497369,9.96019883,1632819.4803278688,6.1e-06,614.5122455778829,2392568.1692581507,0.0002568421052631579
147.21290299625696,10.1146486,1631394.935483871,6.2e-06,624.041299827866,2390480.7856309386,0.00026105263157894735
147.21398426262277,10.2683845,1629902.3015873015,6.3e-06,633.526310593955,2388293.63120737,0.00026526315789473685
147.21539026979238,10.4242044,1628781.9375000002,6.4e-06,643.1398974599434,2386651.9632302593,0.0002694736842105263
147.21590368863608,10.5761421,1627098.7846153846,6.5e-06,652.5139650672804,2384185.641591986,0.0002736842105263158
147.21674184880317,10.7306454,1625855.3636363638,6.5999999999999995e-06,662.0463219461635,2382363.6585183917,0.00027789473684210523
147.2178231105473,10.8827142,1624285.7014925375,6.699999999999999e-06,671.4284780020114,2380063.6347086225,0.0002821052631578947
