Temperature [K],Voltage [V],Resistance [𝛀],Current Source [A],Electric Field [V/cm],Restivity [𝛀 cm],Current Density [A/cm2]
103.96385993412757,1.4130322039999998,1413032.204,1e-06,30.01342829226848,1958376.1960705183,1.532567049808429e-05
103.96431741103137,1.941416242,1398961.7037941178,1.3877551020408162e-06,41.236538700084964,1938875.343512451,2.126827742591289e-05
103.96468803574119,2.453583176,1381903.168091954,1.7755102040816327e-06,52.11519065420561,1915233.256542056,2.7210884353741498e-05
103.96582293279357,2.9389814139999997,1358585.747981132,2.163265306122449e-06,62.425263678844516,1882916.7386526947,3.31534912815701e-05
103.96609514438714,3.4541303159999996,1354019.0838719998,2.5510204081632653e-06,73.36725395072217,1876587.6215515716,3.90960982093987e-05
103.96677266100468,3.94102061,1341041.735347222,2.9387755102040816e-06,83.70901890399321,1858601.8103527245,4.50387051372273e-05
103.96734583874115,4.421470606,1329153.7404539876,3.3265306122448983e-06,93.91398908241291,1842125.7766487403,5.098131206505591e-05
103.96816227643134,4.894296949999999,1317695.3326923077,3.714285714285714e-06,103.9570295242141,1826245.1244301843,5.692391899288451e-05
103.96903088117911,5.3618850479999995,1307126.205731343,4.102040816326531e-06,113.88880730671198,1811596.961001915,6.286652592071311e-05
103.96963310340875,5.822672778,1296868.027827273,4.489795918367347e-06,123.6761422684792,1797379.753944978,6.880913284854171e-05
103.97018898555773,6.280386393999999,1287610.5996066942,4.8775510204081635e-06,133.39818169073916,1784549.5247310284,7.475173977637032e-05
103.97097073606888,6.728578362,1277908.2935581396,5.265306122448979e-06,142.91797710280375,1771102.7220617803,8.069434670419892e-05
103.97138769495378,7.173893563999999,1269028.1033790612,5.653061224489796e-06,152.37666873406965,1758795.321696766,8.663695363202753e-05
103.97221568570546,7.614397545999999,1260491.4856554053,6.040816326530612e-06,161.73316792693288,1746964.091737791,9.257956055985612e-05
103.97311323269358,8.05090338,1252362.748,6.428571428571429e-06,171.00474468988955,1735698.158602379,9.852216748768472e-05
103.97343760786956,8.478756074,1243889.3641497006,6.8163265306122445e-06,180.0925249362787,1723954.566923704,0.00010446477441551332
103.97400494888048,8.907179918,1236407.410713881,7.204081632653061e-06,189.19243666100257,1713585.037151248,0.00011040738134334193
103.97496029471003,9.330472732,1229013.8813655914,7.591836734693878e-06,198.18336304163128,1703338.057754988,0.00011634998827117054
103.97541212586755,9.750530631999998,1221933.5063120201,7.979591836734695e-06,207.10557841971112,1693525.0910547862,0.00012229259519899914
103.97624001215058,10.164132720000001,1214737.812878049,8.36734693877551e-06,215.89066949872563,1683552.30013366,0.00012823520212682773
103.9768305674208,10.57708802,1208105.6246620044,8.755102040816328e-06,224.6620225148683,1674360.4929735726,0.00013417780905465636
103.97732280952877,10.98450948,1201430.7243749998,9.142857142857144e-06,233.31583432455398,1665109.489495938,0.00014012041598248496
103.97804664846717,11.388711420000002,1194961.155417559,9.53061224489796e-06,241.90126210705188,1656143.062680453,0.00014606302291031355
103.97863137290854,11.78656416,1188357.2918518519,9.918367346938776e-06,250.3518300764656,1646990.5117530446,0.00015200562983814215
103.97966802042427,11.0298099,1070219.1784158414,1.0306122448979593e-05,234.27803525913342,1483258.3133312163,0.00015794823676597077
103.9802527425214,11.401079800000002,1066131.5080152673,1.0693877551020409e-05,242.16397196261687,1477593.0522089251,0.00016389084369379937
103.9804787039335,11.767313599999998,1061875.444567219,1.1081632653061225e-05,249.94293967714526,1471694.408623854,0.00016983345062162797
103.98097647965525,12.13081844,1057669.22341637,1.1469387755102042e-05,257.663943075616,1465864.8434137243,0.0001757760575494566
103.98186818034296,12.49085472,1053445.5787951807,1.1857142857142858e-05,265.31127272727275,1460011.1303395398,0.0001817186644772852
103.98207092355327,12.848372359999999,1049283.7427333333,1.2244897959183674e-05,272.9051053525913,1454243.080147621,0.00018766127140511376
103.98280048641547,13.20216992,1045082.9177382875,1.263265306122449e-05,280.4199218351742,1448420.9936793388,0.00019360387833294236
103.9831247580527,13.553201820000002,1040919.8889968653,1.3020408163265308e-05,287.87599447748516,1442651.2905064882,0.00019954648526077098
103.98340842256668,13.90318566,1036919.4784474885,1.3408163265306123e-05,295.30980586236194,1437106.9662000558,0.00020548909218859958
103.98394689881408,14.253011480000001,1033132.4889349113,1.379591836734694e-05,302.7402608326254,1431858.4303951354,0.00021143169911642818
103.98459543978785,14.59773994,1029193.1756258992,1.4183673469387757e-05,310.06244562446904,1426398.7831263791,0.0002173743060442568
103.9851514007253,14.94230054,1025451.9978431371,1.4571428571428573e-05,317.3810649957519,1421213.7395765653,0.0002233169129720854
103.98607777375685,15.2832099,1021660.689085948,1.4959183673469389e-05,324.62213041631264,1415959.2175628317,0.000229259519899914
103.98638475152259,15.620412960000001,1017819.4614893617,1.5346938775510204e-05,331.7844723874257,1410635.5110913522,0.0002352021268277426
103.98730529370542,15.95971896,1014301.2049805447,1.573469387755102e-05,338.9914817332201,1405759.4227905811,0.0002411447337555712
103.9871142105737,16.29336848,1010601.336101266,1.6122448979591836e-05,346.0783449447749,1400631.6308540273,0.0002470873406833998
103.98799433920908,16.6254262,1006978.8427688503,1.6510204081632655e-05,353.13139762107056,1395611.0766921728,0.0002530299476112284
103.98822602847447,16.956619080000003,1003471.4189855073,1.689795918367347e-05,360.1660807136789,1390750.0018862437,0.00025897255453905703
103.98888602649927,17.28806746,1000136.1340495867,1.7285714285714287e-05,367.2061907391674,1386127.5009926837,0.0002649151614668856
103.98931452919867,17.614423499999997,996659.0663972284,1.7673469387755103e-05,374.138137213254,1381308.49792734,0.00027085776839471423
103.99003252033249,17.93879908,993221.6439774011,1.806122448979592e-05,381.0280178419711,1376544.4407290872,0.0002768003753225428
103.99036834684391,18.26233444,989883.172079646,1.8448979591836735e-05,387.900051826678,1371917.5229013786,0.0002827429822503714
103.99105738771932,18.58622762,986701.1412567714,1.883673469387755e-05,394.7796860662702,1367507.422833567,0.0002886855891782
103.99136436180655,18.90515944,983389.3976220805,1.922448979591837e-05,401.5539388275276,1362917.5487434315,0.00029462819610602867
103.99216929323532,19.224754479999998,980242.4240582724,1.9612244897959186e-05,408.3422786745964,1358556.0358921469,0.00030057080303385724
103.99227333360633,19.55076316,977538.1579999998,2e-05,415.26684706881906,1354808.0885620222,0.0003065134099616858
111.67669388633085,0.9216737180000001,921673.7180000001,1e-06,19.576756966864913,1277383.3920879357,1.532567049808429e-05
111.68487404459015,1.27452815,918409.9904411766,1.3877551020408162e-06,27.07154099405268,1272860.0653416903,2.126827742591289e-05
111.6910818574908,1.61908712,911899.6422988506,1.7755102040816327e-06,34.39012574341547,1263837.1210705184,2.7210884353741498e-05
111.69719262135285,1.944637256,898936.0900377359,2.163265306122449e-06,41.30495446049278,1245870.430649156,3.31534912815701e-05
111.70328610317463,2.291746952,898364.805184,2.5510204081632653e-06,48.67771775700935,1245078.6647887852,3.90960982093987e-05
111.70936832306413,2.6214134459999996,892008.7420416665,2.9387755102040816e-06,55.67997973661851,1236269.5500896082,4.50387051372273e-05
111.71515391789478,2.9466950720000002,885816.30998773,3.3265306122448983e-06,62.58910518266781,1227687.218069231,5.098131206505591e-05
111.7215722421518,3.2682033259999996,879900.8954615383,3.714285714285714e-06,69.41808254035683,1219488.815396461,5.692391899288451e-05
111.72747752729848,3.588012422,874689.5954129352,4.102040816326531e-06,76.21096903143585,1212266.2723172053,6.286652592071311e-05
111.7335252311744,3.9031075120000005,869328.4913090911,4.489795918367347e-06,82.90372795242142,1204836.10998127,6.880913284854171e-05
111.7398692224009,4.216050632,864378.5814560669,4.8775510204081635e-06,89.55077807986406,1197975.8377232023,7.475173977637032e-05
111.74607619494968,4.525368838,859469.2754341087,5.265306122448979e-06,96.12083343245541,1191171.8398911555,8.069434670419892e-05
111.75201534492199,4.833523948,855027.7019927797,5.653061224489796e-06,102.66618411214954,1185016.0908035021,8.663695363202753e-05
111.7585301822201,5.137573946,850476.7680878378,6.040816326530612e-06,109.1243403993203,1178708.7748031314,9.257956055985612e-05
111.76381378715595,5.44021999,846256.4428888889,6.428571428571429e-06,115.55267608326254,1172859.6622451148,9.852216748768472e-05
111.76982675063832,5.739327258000001,841997.112700599,6.8163265306122445e-06,121.90584660152935,1166956.4911579036,0.00010446477441551332
111.77594243524481,6.036579917999999,837938.8554730878,7.204081632653061e-06,128.21962442650806,1161331.994894201,0.00011040738134334193
111.78241691367111,6.332150448,834073.580516129,7.591836734693878e-06,134.49767306711982,1155974.9602522817,0.00011634998827117054
111.78827016972093,6.625460061999999,830300.6215805624,7.979591836734695e-06,140.72769885301614,1150745.869968813,0.00012229259519899914
111.79456224620473,6.915544962,826491.9588731708,8.36734693877551e-06,146.88923028887,1145467.2964416821,0.00012823520212682773
111.80084296788284,7.203924326000001,822825.8554172494,8.755102040816328e-06,153.01453538657609,1140386.3013163877,0.00013417780905465636
111.80666733682995,7.491421753999999,819374.2543437498,9.142857142857144e-06,159.1211077740017,1135602.5933714886,0.00014012041598248496
111.81261153888752,7.776906844,815992.3669293361,9.53061224489796e-06,165.18493721325405,1130915.5042935256,0.00014606302291031355
111.81876640997014,8.059697336,812603.2293497941,9.918367346938776e-06,171.19153220050976,1126218.3669302054,0.00015200562983814215
111.824670511836,8.340580384,809284.037259406,1.0306122448979593e-05,177.1576122344945,1121618.1697361139,0.00015794823676597077
111.83030674015606,8.619614536,806032.6569923664,1.0693877551020409e-05,183.08442090059475,1117111.9555809665,0.00016389084369379937
111.83576631380708,8.89640082,802805.9671823204,1.1081632653061225e-05,188.96348385726424,1112639.9608888363,0.00016983345062162797
111.84187540482131,9.171120972,799617.3089466192,1.1469387755102042e-05,194.7986612574342,1108220.6756322621,0.0001757760575494566
111.84760256514362,9.444609676,796533.3461686746,1.1857142857142858e-05,200.60768215802892,1103946.491875659,0.0001817186644772852
111.85356351623231,9.716702408,793530.6966533333,1.2244897959183674e-05,206.38705199660154,1099785.0033268905,0.00018766127140511376
111.85983760724181,9.987299424,790593.9770210016,1.263265306122449e-05,212.13465216652506,1095714.8895628792,0.00019360387833294236
111.8657925886832,10.254935040000001,787604.7287774294,1.3020408163265308e-05,217.81935089209858,1091571.974356994,0.00019954648526077098
111.87109787656452,10.52237698,784773.9300152207,1.3408163265306123e-05,223.4999358538658,1087648.6604395318,0.00020548909218859958
111.87700148842964,10.7883708,781997.2917159762,1.379591836734694e-05,229.14976210705183,1083800.4096106086,0.00021143169911642818
111.88320684869093,11.05236656,779231.5991942445,1.4183673469387757e-05,234.75714868309262,1079967.328959738,0.0002173743060442568
111.8879251592388,11.315694480000001,776567.2682352941,1.4571428571428573e-05,240.35035004248093,1076274.7292343448,0.0002233169129720854
111.89458057451752,11.57681426,773893.4498499318,1.4959183673469389e-05,245.8966495327103,1072568.9805163138,0.000229259519899914
111.90095121083263,11.8360437,771231.5708776595,1.5346938775510204e-05,251.4027973661852,1068879.7790944623,0.0002352021268277426
111.90611360805246,11.31650218,719207.0127367056,1.573469387755102e-05,240.36750594732374,996776.9239819465,0.0002411447337555712
111.91093993040545,11.56449136,717291.2362531646,1.6122448979591836e-05,245.63490569243842,994121.7749685427,0.0002470873406833998
111.91543563835603,11.81071166,715358.3082076637,1.6510204081632655e-05,250.86473364485985,991442.8549394662,0.0002530299476112284
111.92128168669517,12.053637279999998,713319.1143961351,1.689795918367347e-05,256.0245811384877,988616.6570592145,0.00025897255453905703
111.9254867956349,12.2952686,711296.5305785123,1.7285714285714287e-05,261.15693712829227,985813.4796144421,0.0002649151614668856
111.93060918607496,12.5345531,709229.9098152425,1.7673469387755103e-05,266.239445624469,982949.2696568515,0.00027085776839471423
111.9351900902002,12.773443559999999,707230.2084067796,1.806122448979592e-05,271.3135845369584,980177.8058314014,0.0002768003753225428
111.93933791998495,13.01048342,705214.2561725663,1.8448979591836735e-05,276.3484158878505,977383.8193555641,0.0002827429822503714
111.94506422099603,13.245622879999999,703180.4129144095,1.883673469387755e-05,281.34288190314356,974565.0370149792,0.0002886855891782
111.94941711395566,13.478563439999999,701114.2341401272,1.922448979591837e-05,286.29064231096004,971701.4396270879,0.00029462819610602867
111.95440822035869,13.71210778,699160.5423725286,1.9612244897959186e-05,291.2512272727273,968993.742349352,0.00030057080303385724
111.95965564663854,13.943803979999998,697190.1989999999,2e-05,296.172556924384,966262.966965803,0.0003065134099616858
116.53342736766108,0.6919896894,691989.6894,1e-06,14.698166724723876,959055.378788233,1.532567049808429e-05
116.59316981628665,0.9561064598,688959.0666205883,1.3877551020408162e-06,20.308123615123197,954855.1210066567,2.126827742591289e-05
116.66537196238383,1.21371191,683584.8688505747,1.7755102040816327e-06,25.779777187765507,947406.8116503824,2.7210884353741498e-05
116.72291461760199,1.460292472,675040.8596981132,2.163265306122449e-06,31.017257264231095,935565.3376232346,3.31534912815701e-05
116.78876935011154,1.7143676939999999,672032.136048,2.5510204081632653e-06,36.41392723024639,931395.430695242,3.90960982093987e-05
116.85664971457629,1.9573594059999997,666045.908986111,2.9387755102040816e-06,41.575178547153776,923098.8861797738,4.50387051372273e-05
116.91452854315662,2.197810252,660691.4254478527,3.3265306122448983e-06,46.682460747663555,915677.8995427442,5.098131206505591e-05
116.97163345753533,2.433938014,655291.0037692308,3.714285714285714e-06,51.697918734069674,908193.2454533202,5.692391899288451e-05
117.0293310869879,2.667818004,650363.5930149253,4.102040816326531e-06,56.66563305012745,901364.1555697512,6.286652592071311e-05
117.08699449802354,2.898784364,645638.3356181819,4.489795918367347e-06,61.57146057774002,894815.2378735422,6.880913284854171e-05
117.14395789696138,3.126349928,640967.1400502091,4.8775510204081635e-06,66.40505369583687,888341.2465649139,7.475173977637032e-05
117.20049793488106,3.3510755020000005,636444.5720852715,5.265306122448979e-06,71.17832417162279,882073.2440221744,8.069434670419892e-05
117.25715626613105,3.573841858,632195.8521371841,5.653061224489796e-06,75.90997999150383,876184.7780788289,8.663695363202753e-05
117.31312646013969,3.792886668,627876.5092297298,6.040816326530612e-06,80.56258853016143,870198.433033982,9.257956055985612e-05
117.36988651973502,4.010160118,623802.6850222222,6.428571428571429e-06,85.17757259983009,864552.3618882755,9.852216748768472e-05
117.42438447114714,4.222933112,619532.1032574851,6.8163265306122445e-06,89.69696499575191,858633.5968043947,0.00010446477441551332
117.48033801185167,4.43189078,615191.6380169971,7.204081632653061e-06,94.13531818181818,852617.9774980685,0.00011040738134334193
117.53585740414496,4.642734958,611543.0455430107,7.591836734693878e-06,98.61374167374683,847561.2515225458,0.00011634998827117054
117.58838834478627,4.853840728000001,608281.8303631714,7.979591836734695e-06,103.09772149532712,843041.406779884,0.00012229259519899914
117.64305124868035,5.059520837999999,604674.441614634,8.36734693877551e-06,107.46645790144434,838041.7866472999,0.00012823520212682773
117.69928207487192,5.262263604,601051.0876363636,8.755102040816328e-06,111.77280382327953,833020.0396829381,0.00013417780905465636
117.75343830419801,5.463775362,597600.4302187499,9.142857142857144e-06,116.05300259133391,828237.6395873713,0.00014012041598248496
117.80699184133987,5.662938986,594184.176261242,9.53061224489796e-06,120.28332595581989,823502.9205829661,0.00014606302291031355
117.8607319433539,5.859823214,590805.2211646091,9.918367346938776e-06,124.46523394222602,818819.8955180703,0.00015200562983814215
117.9126241690459,6.054133952,587430.8191049504,1.0306122448979593e-05,128.59247986406118,814143.1806839001,0.00015794823676597077
117.96561038789211,6.247169712,584181.9005496183,1.0693877551020409e-05,132.69264468988956,809640.3783105904,0.00016389084369379937
118.01829320514007,6.438206982,580980.0039005524,1.1081632653061225e-05,136.75036070518266,805202.7454229194,0.00016983345062162797
118.07107241502732,6.628485194,577928.4243879003,1.1469387755102042e-05,140.79195399320307,800973.442891047,0.0001757760575494566
118.12264122783492,6.816033926,574846.2347228915,1.1857142857142858e-05,144.77557192013595,796701.7165605071,0.0001817186644772852
118.17697691862539,7.001383548,571779.6564199999,1.2244897959183674e-05,148.7124797790994,792451.6266228759,0.00018766127140511376
118.22905979479833,7.184503273999999,568724.8149046849,1.263265306122449e-05,152.60202366185214,788217.8031548575,0.00019360387833294236
118.28090717861497,7.365982164,565725.9028777429,1.3020408163265308e-05,156.45671546304163,784061.4945363791,0.00019954648526077098
118.33200087587201,7.547180944,562879.5529010654,1.3408163265306123e-05,160.30545760407819,780116.6275869695,0.00020548909218859958
118.38260006349253,7.726746246,560074.8018550295,1.379591836734694e-05,164.1195039507222,776229.4142107198,0.00021143169911642818
118.4311563176971,7.904375314000001,557286.8926417266,1.4183673469387757e-05,167.89242383177574,772365.5425843812,0.0002173743060442568
118.48104857072906,8.07967727,554487.6557843137,1.4571428571428573e-05,171.61591482582838,768485.9715362461,0.0002233169129720854
118.53049739520948,8.254045139999999,551771.0939427011,1.4959183673469389e-05,175.31956542056074,764720.9830025755,0.000229259519899914
118.57934521562194,8.426038706,549037.0965345744,1.5346938775510204e-05,178.9727847493628,760931.8298402928,0.0002352021268277426
118.62872360428096,8.598345196,546457.7361919585,1.573469387755102e-05,182.63265072217504,757356.9941912765,0.0002411447337555712
118.67718018781434,8.767575312000002,543811.6332759495,1.6122448979591836e-05,186.2271731520816,753689.6574183455,0.0002470873406833998
118.72622943432816,8.935961868,541238.7287169343,1.6510204081632655e-05,189.8037779949023,750123.7690904838,0.0002530299476112284
118.77516196028739,9.102108865999998,538651.3700893718,1.689795918367347e-05,193.33281363636362,746537.8483078062,0.00025897255453905703
118.8238031217218,9.267785933999999,536152.9052727271,1.7285714285714287e-05,196.85186775700933,743075.1289092067,0.0002649151614668856
118.87221537612436,9.431653532,533661.6894549653,1.7673469387755103e-05,200.33248793542907,739622.4561796195,0.00027085776839471423
118.91851375002844,9.594489784,531220.3383231638,1.806122448979592e-05,203.7912018691589,736238.8928544275,0.0002768003753225428
118.96736811305723,9.755242487999999,528768.6746814159,1.8448979591836735e-05,207.2056603228547,732841.0370212911,0.0002827429822503714
119.01431116629917,9.916622032,526451.22380065,1.883673469387755e-05,210.6334331350892,729629.1918647498,0.0002886855891782
119.06157123287502,10.074046140000002,524021.5083439491,1.922448979591837e-05,213.97719073916744,726261.7548734639,0.00029462819610602867
119.10954156474213,10.23055016,521640.95508844947,1.9612244897959186e-05,217.30140526762958,722962.4536856697,0.00030057080303385724
119.15577592604618,10.386694160000001,519334.70800000004,2e-05,220.61797281223454,719766.1362999153,0.0003065134099616858
